 $NMID
 ID=Ala_1.300000.RAW
 fmtdat='(2e14.5)'
 tramp=1.0
 volume=1.0
 $END
  -2.66530e+00   9.52720e-01
  -2.61875e+00   1.71204e+00
  -2.57781e+00   2.43583e+00
  -2.53420e+00   3.08697e+00
  -2.47683e+00   3.63348e+00
  -2.39302e+00   4.04996e+00
  -2.26950e+00   4.31993e+00
  -2.09415e+00   4.43672e+00
  -1.85790e+00   4.40333e+00
  -1.55531e+00   4.23244e+00
  -1.18595e+00   3.94502e+00
  -7.55010e-01   3.56879e+00
  -2.73220e-01   3.13530e+00
   2.43480e-01   2.67824e+00
   7.75080e-01   2.23045e+00
   1.29851e+00   1.82145e+00
   1.78952e+00   1.47554e+00
   2.22492e+00   1.20973e+00
   2.58371e+00   1.03321e+00
   2.84978e+00   9.46840e-01
   3.01252e+00   9.43090e-01
   3.06840e+00   1.00748e+00
   3.02147e+00   1.11964e+00
   2.88306e+00   1.25565e+00
   2.67101e+00   1.38981e+00
   2.40872e+00   1.49697e+00
   2.12318e+00   1.55466e+00
   1.84295e+00   1.54482e+00
   1.59560e+00   1.45518e+00
   1.40598e+00   1.28012e+00
   1.29351e+00   1.02091e+00
   1.27078e+00   6.85460e-01
   1.34243e+00   2.87345e-01
   1.50430e+00  -1.55358e-01
   1.74345e+00  -6.21780e-01
   2.03961e+00  -1.08997e+00
   2.36569e+00  -1.53875e+00
   2.69042e+00  -1.94934e+00
   2.98057e+00  -2.30674e+00
   3.20352e+00  -2.60054e+00
   3.32983e+00  -2.82572e+00
   3.33538e+00  -2.98249e+00
   3.20422e+00  -3.07566e+00
   2.92890e+00  -3.11409e+00
   2.51217e+00  -3.10927e+00
   1.96661e+00  -3.07386e+00
   1.31386e+00  -3.02036e+00
   5.83410e-01  -2.95990e+00
  -1.89543e-01  -2.90064e+00
  -9.66550e-01  -2.84745e+00
  -1.70859e+00  -2.80085e+00
  -2.37893e+00  -2.75792e+00
  -2.94565e+00  -2.71174e+00
  -3.38400e+00  -2.65309e+00
  -3.67773e+00  -2.57096e+00
  -3.82074e+00  -2.45438e+00
  -3.81693e+00  -2.29361e+00
  -3.67972e+00  -2.08112e+00
  -3.43122e+00  -1.81352e+00
  -3.09978e+00  -1.49143e+00
  -2.71856e+00  -1.12042e+00
  -2.32216e+00  -7.10740e-01
  -1.94418e+00  -2.76730e-01
  -1.61510e+00   1.64140e-01
  -1.35928e+00   5.92620e-01
  -1.19387e+00   9.89250e-01
  -1.12740e+00   1.33605e+00
  -1.15918e+00   1.61809e+00
  -1.28008e+00   1.82496e+00
  -1.47280e+00   1.95180e+00
  -1.71403e+00   1.99995e+00
  -1.97613e+00   1.97686e+00
  -2.22950e+00   1.89615e+00
  -2.44514e+00   1.77600e+00
  -2.59659e+00   1.63795e+00
  -2.66226e+00   1.50549e+00
  -2.62701e+00   1.40147e+00
  -2.48309e+00   1.34645e+00
  -2.23060e+00   1.35665e+00
  -1.87732e+00   1.44235e+00
  -1.43807e+00   1.60681e+00
  -9.32950e-01   1.84567e+00
  -3.86100e-01   2.14671e+00
   1.76430e-01   2.49100e+00
   7.28800e-01   2.85361e+00
   1.24717e+00   3.20569e+00
   1.71149e+00   3.51660e+00
   2.10672e+00   3.75640e+00
   2.42356e+00   3.89804e+00
   2.65892e+00   3.91955e+00
   2.81571e+00   3.80623e+00
   2.90179e+00   3.55195e+00
   2.92904e+00   3.15987e+00
   2.91199e+00   2.64227e+00
   2.86603e+00   2.02032e+00
   2.80604e+00   1.32255e+00
   2.74482e+00   5.82770e-01
   2.69203e+00  -1.62051e-01
   2.65308e+00  -8.74470e-01
   2.62930e+00  -1.51931e+00
   2.61765e+00  -2.06616e+00
   2.61147e+00  -2.49151e+00
   2.60131e+00  -2.78046e+00
   2.57602e+00  -2.92791e+00
   2.52435e+00  -2.93836e+00
   2.43609e+00  -2.82596e+00
   2.30359e+00  -2.61330e+00
   2.12223e+00  -2.32906e+00
   1.89202e+00  -2.00636e+00
   1.61692e+00  -1.67995e+00
   1.30525e+00  -1.38309e+00
   9.68840e-01  -1.14583e+00
   6.22100e-01  -9.91910e-01
   2.80764e-01  -9.37440e-01
  -3.96000e-02  -9.89510e-01
  -3.25020e-01  -1.14589e+00
  -5.64540e-01  -1.39513e+00
  -7.51290e-01  -1.71766e+00
  -8.83307e-01  -2.08747e+00
  -9.63848e-01  -2.47373e+00
  -1.00123e+00  -2.84397e+00
  -1.00823e+00  -3.16598e+00
  -1.00090e+00  -3.41059e+00
  -9.97270e-01  -3.55362e+00
  -1.01559e+00  -3.57790e+00
  -1.07241e+00  -3.47451e+00
  -1.18132e+00  -3.24293e+00
  -1.35090e+00  -2.89133e+00
  -1.58394e+00  -2.43556e+00
  -1.87670e+00  -1.89803e+00
  -2.21870e+00  -1.30556e+00
  -2.59346e+00  -6.87660e-01
  -2.97916e+00  -7.40400e-02
  -3.35030e+00   5.07600e-01
  -3.67963e+00   1.03329e+00
  -3.94044e+00   1.48446e+00
  -4.10832e+00   1.84899e+00
  -4.16354e+00   2.12183e+00
  -4.09267e+00   2.30464e+00
  -3.89012e+00   2.40550e+00
  -3.55868e+00   2.43751e+00
  -3.10956e+00   2.41733e+00
  -2.56220e+00   2.36367e+00
  -1.94270e+00   2.29524e+00
  -1.28233e+00   2.22920e+00
  -6.15116e-01   2.17959e+00
   2.43200e-02   2.15624e+00
   6.03543e-01   2.16414e+00
   1.09457e+00   2.20315e+00
   1.47596e+00   2.26831e+00
   1.73444e+00   2.35080e+00
   1.86587e+00   2.43850e+00
   1.87561e+00   2.51794e+00
   1.77784e+00   2.57532e+00
   1.59495e+00   2.59823e+00
   1.35502e+00   2.57687e+00
   1.09028e+00   2.50491e+00
   8.34390e-01   2.38027e+00
   6.19530e-01   2.20511e+00
   4.74110e-01   1.98595e+00
   4.20480e-01   1.73280e+00
   4.73110e-01   1.45808e+00
   6.37540e-01   1.17551e+00
   9.09610e-01   8.98520e-01
   1.27612e+00   6.39460e-01
   1.71540e+00   4.07560e-01
   2.19952e+00   2.08470e-01
   2.69564e+00   4.37600e-02
   3.16915e+00  -8.96000e-02
   3.58603e+00  -1.98790e-01
   3.91531e+00  -2.94390e-01
   4.13146e+00  -3.89370e-01
   4.21621e+00  -4.97710e-01
   4.15993e+00  -6.32840e-01
   3.96224e+00  -8.06160e-01
   3.63168e+00  -1.02548e+00
   3.18535e+00  -1.29415e+00
   2.64726e+00  -1.61003e+00
   2.04639e+00  -1.96559e+00
   1.41468e+00  -2.34750e+00
   7.84550e-01  -2.73797e+00
   1.86530e-01  -3.11559e+00
  -3.53000e-01  -3.45720e+00
  -8.13210e-01  -3.73947e+00
  -1.18046e+00  -3.94079e+00
  -1.44874e+00  -4.04341e+00
  -1.61978e+00  -4.03493e+00
  -1.70241e+00  -3.90943e+00
  -1.71138e+00  -3.66868e+00
  -1.66618e+00  -3.32174e+00
  -1.58843e+00  -2.88509e+00
  -1.50074e+00  -2.38135e+00
  -1.42400e+00  -1.83795e+00
  -1.37626e+00  -1.28484e+00
  -1.37088e+00  -7.52930e-01
  -1.41570e+00  -2.70960e-01
  -1.51264e+00   1.36120e-01
  -1.65772e+00   4.49300e-01
  -1.84178e+00   6.57030e-01
  -2.05123e+00   7.56120e-01
  -2.26978e+00   7.52130e-01
  -2.47987e+00   6.58902e-01
  -2.66412e+00   4.97622e-01
  -2.80728e+00   2.95087e-01
  -2.89694e+00   8.16749e-02
  -2.92541e+00  -1.11070e-01
  -2.88915e+00  -2.53000e-01
  -2.78996e+00  -3.17750e-01
  -2.63388e+00  -2.84970e-01
  -2.43069e+00  -1.42030e-01
  -2.19286e+00   1.14820e-01
  -1.93420e+00   4.80120e-01
  -1.66849e+00   9.39220e-01
  -1.40789e+00   1.46948e+00
  -1.16228e+00   2.04168e+00
  -9.37730e-01   2.62235e+00
  -7.36510e-01   3.17585e+00
  -5.56920e-01   3.66766e+00
  -3.93330e-01   4.06609e+00
  -2.37250e-01   4.34525e+00
  -7.82360e-02   4.48669e+00
   9.47300e-02   4.48074e+00
   2.91900e-01   4.32711e+00
   5.21410e-01   4.03500e+00
   7.88030e-01   3.62222e+00
   1.09235e+00   3.11379e+00
   1.43029e+00   2.54007e+00
   1.79286e+00   1.93431e+00
   2.16682e+00   1.33039e+00
   2.53551e+00   7.60220e-01
   2.87982e+00   2.51490e-01
   3.17996e+00  -1.74300e-01
   3.41724e+00  -5.02990e-01
   3.57539e+00  -7.28696e-01
   3.64227e+00  -8.53870e-01
   3.61144e+00  -8.88740e-01
   3.48225e+00  -8.50150e-01
   3.26103e+00  -7.59920e-01
   2.96027e+00  -6.42810e-01
   2.59805e+00  -5.24660e-01
   2.19706e+00  -4.29570e-01
   1.78261e+00  -3.78680e-01
   1.38067e+00  -3.88090e-01
   1.01627e+00  -4.67720e-01
   7.10810e-01  -6.20760e-01
   4.80990e-01  -8.43420e-01
   3.36810e-01  -1.12573e+00
   2.80880e-01  -1.45238e+00
   3.07820e-01  -1.80387e+00
   4.05180e-01  -2.15880e+00
   5.53360e-01  -2.49519e+00
   7.28080e-01  -2.79258e+00
   9.01525e-01  -3.03343e+00
   1.04486e+00  -3.20450e+00
   1.13063e+00  -3.29783e+00
   1.13498e+00  -3.31091e+00
   1.03971e+00  -3.24676e+00
   8.33952e-01  -3.11333e+00
   5.15220e-01  -2.92243e+00
   8.99500e-02  -2.68876e+00
  -4.26750e-01  -2.42772e+00
  -1.01223e+00  -2.15498e+00
  -1.63733e+00  -1.88412e+00
  -2.26884e+00  -1.62606e+00
  -2.87188e+00  -1.38782e+00
  -3.41222e+00  -1.17238e+00
  -3.85868e+00  -9.78640e-01
  -4.18588e+00  -8.01710e-01
  -4.37585e+00  -6.33860e-01
  -4.41924e+00  -4.65370e-01
  -4.31608e+00  -2.86190e-01
  -4.07585e+00  -8.70100e-02
  -3.71663e+00   1.39370e-01
  -3.26362e+00   3.97050e-01
  -2.74751e+00   6.86140e-01
  -2.20165e+00   1.00250e+00
  -1.66028e+00   1.33809e+00
  -1.15526e+00   1.68065e+00
  -7.14300e-01   2.01564e+00
  -3.58530e-01   2.32668e+00
  -1.01750e-01   2.59738e+00
   5.12000e-02   2.81257e+00
   1.03950e-01   2.96015e+00
   6.83600e-02   3.03178e+00
  -3.67800e-02   3.02441e+00
  -1.87368e-01   2.94036e+00
  -3.56121e-01   2.78752e+00
  -5.14829e-01   2.57897e+00
  -6.36650e-01   2.33172e+00
  -6.98300e-01   2.06596e+00
  -6.81830e-01   1.80300e+00
  -5.76040e-01   1.56351e+00
  -3.77160e-01   1.36578e+00
  -8.91400e-02   1.22420e+00
   2.76840e-01   1.14773e+00
   7.03410e-01   1.13877e+00
   1.16843e+00   1.19329e+00
   1.64688e+00   1.30044e+00
   2.11265e+00   1.44350e+00
   2.54099e+00   1.60095e+00
   2.90984e+00   1.74828e+00
   3.20167e+00   1.86008e+00
   3.40466e+00   1.91172e+00
   3.51316e+00   1.88203e+00
   3.52824e+00   1.75478e+00
   3.45643e+00   1.52053e+00
   3.30966e+00   1.17752e+00
   3.10361e+00   7.32220e-01
   2.85598e+00   1.99130e-01
   2.58549e+00  -3.99970e-01
   2.30949e+00  -1.03739e+00
   2.04306e+00  -1.68175e+00
   1.79745e+00  -2.29951e+00
   1.57970e+00  -2.85809e+00
   1.39233e+00  -3.32798e+00
   1.23291e+00  -3.68493e+00
   1.09555e+00  -3.91175e+00
   9.70953e-01  -3.99967e+00
   8.48330e-01  -3.94888e+00
   7.16340e-01  -3.76881e+00
   5.64640e-01  -3.47696e+00
   3.85110e-01  -3.09820e+00
   1.72850e-01  -2.66207e+00
  -7.31300e-02  -2.20132e+00
  -3.49600e-01  -1.74906e+00
  -6.49430e-01  -1.33609e+00
  -9.61970e-01  -9.88970e-01
  -1.27394e+00  -7.27810e-01
  -1.57089e+00  -5.65020e-01
  -1.83841e+00  -5.04270e-01
  -2.06349e+00  -5.40350e-01
  -2.23583e+00  -6.60010e-01
  -2.34886e+00  -8.42770e-01
  -2.40079e+00  -1.06271e+00
  -2.39430e+00  -1.29093e+00
  -2.33701e+00  -1.49735e+00
  -2.24047e+00  -1.65358e+00
  -2.11946e+00  -1.73493e+00
  -1.99050e+00  -1.72241e+00
  -1.87032e+00  -1.60415e+00
  -1.77458e+00  -1.37634e+00
  -1.71567e+00  -1.04341e+00
